Time (s);WLTC;WLTC 3.1;WLTC 3.2;WLTC 3.3;WLTC 3.4;CADC Urban;CADC Road;CADC Motorway;CADC Motorway 130;CADC;NEDC;SORT 1;SORT 2;SORT 3
0;0;0;0;0;0;0;0;0;0;0;0;0;0;0
1;0;0;0;0;2.2;0;0;0;0;0;0;4;4;3
2;0;0;0;0;4.4;0;0;0;0;0;0;7;7;6
3;0;0;0;0;6.3;0;0;0;0;0;0;11;11;8
4;0;0;0;0.8;7.9;0;0;0;0;0;0;15;15;11
5;0;0;0;3.6;9.2;0;2;0;0;0;0;19;19;14
6;0;0;0;8.6;10.4;0;9.4;2.4;2.4;0;0;20;20;17
7;0;0;0;14.6;11.5;0;16.3;2.9;2.9;0;0;20;20;19
8;0;0;0;20;12.9;0;19.7;5.3;5.3;0;0;20;20;22
9;0;0;0;24.4;14.7;0;21.2;11.5;11.5;0;0;20;20;25
10;0;0;0;28.2;17;0;24.1;16.8;16.8;0;0;20;20;28
11;0;0;1;31.7;19.8;0;27.6;19.7;19.7;0;0;20;20;30
12;0.2;0.2;2.1;35;23.1;0;29.1;21.1;21.1;0;3.8;20;20;30
13;1.7;1.7;4.8;37.6;26.7;0;32.5;24.5;24.5;0;7.5;20;20;30
14;5.4;5.4;9.1;39.7;30.5;0;36.5;26.9;26.9;0;11.3;20;20;30
15;9.9;9.9;14.2;41.5;34.1;0;37;28.3;28.3;0;15;20;20;30
16;13.1;13.1;19.8;43.6;37.5;0;38.4;28.3;28.3;0;15;20;20;30
17;16.9;16.9;25.5;46;40.6;0;41.4;27.9;27.9;0;15;20;20;30
18;21.7;21.7;30.5;48.4;43.3;0;43.4;27.9;27.9;0;15;17;17;30
19;26;26;34.8;50.5;45.7;0;44.4;29.8;29.8;0;15;14;14;30
20;27.5;27.5;38.8;51.9;47.7;0;45.8;31.2;31.2;0;15;11;11;30
21;28.1;28.1;42.9;52.6;49.3;0.7;47.3;32.2;32.2;0.7;15;8;8;30
22;28.3;28.3;46.4;52.8;50.5;2.1;48.3;32.7;32.7;2.1;15;6;6;30
23;28.8;28.8;48.3;52.9;51.3;9.2;49.3;33.1;33.1;9.2;15;3;3;30
24;29.1;29.1;48.7;53.1;52.1;15.6;49.8;36;36;15.6;12;0;0;30
25;30.8;30.8;48.5;53.3;52.7;19.8;49.3;40.3;40.3;19.8;9;0;0;27
26;31.9;31.9;48.4;53.1;53.4;19.8;46.3;40.8;40.8;19.8;6;0;0;24
27;34.1;34.1;48.2;52.3;54;22.7;42.4;40.3;40.3;22.7;3;0;0;21
28;36.6;36.6;47.8;50.7;54.5;25.5;38.4;37.9;37.9;25.5;0;0;0;18
29;39.1;39.1;47;48.8;55;29.8;34.5;36.5;36.5;29.8;0;0;0;16
30;41.3;41.3;45.9;46.5;55.6;34;28.6;34.1;34.1;34;0;0;0;13
31;42.5;42.5;44.9;43.8;56.3;36.9;24.6;30.7;30.7;36.9;0;0;0;10
32;43.3;43.3;44.4;40.3;57.2;38.3;21.7;24.5;24.5;38.3;0;0;0;7
33;43.9;43.9;44.3;36;58.5;40.4;19.7;15.8;15.8;40.4;0;0;0;4
34;44.4;44.4;44.5;30.7;60.2;43.2;18.2;8.6;8.6;43.2;0;0;0;1
35;44.5;44.5;45.1;25.4;62.3;46.1;18.7;4.3;4.3;46.1;0;0;0;0
36;44.2;44.2;45.7;21;64.7;46.1;20.2;1.4;1.4;46.1;0;0;0;0
37;42.7;42.7;46;16.7;67.1;46.1;23.2;0.5;0.5;46.1;0;0;0;0
38;39.9;39.9;46;13.4;69.2;44.6;25.6;0;0;44.6;0;0;0;0
39;37;37;46;12;70.7;46.1;30.1;0;0;46.1;0;0;0;0
40;34.6;34.6;46.1;12.1;71.9;48.2;33.5;0;0;48.2;0;0;0;0
41;32.3;32.3;46.7;12.8;72.7;48.9;37.9;0;0;48.9;0;0;0;0
42;29;29;47.7;15.6;73.4;48.2;37.9;0;0;48.2;0;0;0;0
43;25.1;25.1;48.9;19.9;73.8;46.8;39.4;0.5;0.5;46.8;0;0;0;0
44;22.2;22.2;50.3;23.4;74.1;44.6;42.4;5.8;5.8;44.6;0;3;2;0
45;20.9;20.9;51.6;24.6;74;42.5;44.8;12.5;12.5;42.5;0;6;4;0
46;20.4;20.4;52.6;25.2;73.6;41.8;46.3;18.3;18.3;41.8;0;8;7;0
47;19.5;19.5;53;26.4;72.5;41.1;46.3;21.1;21.1;41.1;0;11;9;0
48;18.4;18.4;53;28.8;70.8;39.7;46.8;25;25;39.7;0;14;11;0
49;17.8;17.8;52.9;31.8;68.6;36.1;47.3;29.3;29.3;36.1;0;17;13;0
50;17.8;17.8;52.7;35.3;66.2;34.7;46.8;35.5;35.5;34.7;2.7;19;16;0
51;17.4;17.4;52.6;39.5;64;34.7;45.8;40.8;40.8;34.7;5.3;22;18;0
52;15.7;15.7;53.1;44.5;62.2;36.9;43.9;44.7;44.7;36.9;8;25;20;0
53;13.1;13.1;54.3;49.3;60.9;36.1;41.9;45.6;45.6;36.1;10.7;28;22;0
54;12.1;12.1;55.2;53.3;60.2;36.1;41.9;46.1;46.1;36.1;13.3;30;25;0
55;12;12;55.5;56.4;60;34.7;41.9;48;48;34.7;16;30;27;2
56;12;12;55.9;58.9;60.4;32.6;43.9;48;48;32.6;18.7;30;29;4
57;12;12;56.3;61.2;61.4;29.1;45.3;47.5;47.5;29.1;21.3;30;31;6
58;12.3;12.3;56.7;62.6;63.2;24.1;45.8;49.5;49.5;24.1;24;30;33;8
59;12.6;12.6;56.9;63;65.6;20.6;46.3;50;50;20.6;26.7;30;36;10
60;14.7;14.7;56.8;62.5;68.4;15.6;46.3;51.9;51.9;15.6;29.3;30;38;12
61;15.3;15.3;56;60.9;71.6;11.3;45.8;53.3;53.3;11.3;32;30;40;14
62;15.9;15.9;54.2;59.3;74.9;9.2;44.8;54.8;54.8;9.2;32;30;40;16
63;16.2;16.2;52.1;58.6;78.4;9.2;43.4;57.6;57.6;9.2;32;30;40;18
64;17.1;17.1;50.1;58.6;81.8;9.2;41.9;56.2;56.2;9.2;32;30;40;21
65;17.8;17.8;47.2;58.7;84.9;9.9;39.9;55.2;55.2;9.9;32;30;40;23
66;18.1;18.1;43.2;58.8;87.4;10.6;38.4;53.8;53.8;10.6;32;30;37;25
67;18.4;18.4;39.2;58.8;89;12;34.5;52.8;52.8;12;32;30;34;27
68;20.3;20.3;36.5;58.8;90;11.3;29.1;50.9;50.9;11.3;32;27;31;29
69;23.2;23.2;34.3;59.1;90.6;7.8;25.1;48.5;48.5;7.8;32;24;28;31
70;26.5;26.5;31;60.1;91;1.4;22.7;42.3;42.3;1.4;32;21;26;33
71;29.8;29.8;26;61.7;91.5;0;24.6;36;36;0;32;18;23;35
72;32.6;32.6;20.7;63;92;0;27.1;31.7;31.7;0;32;16;20;37
73;34.4;34.4;15.4;63.7;92.7;0;30.1;29.8;29.8;0;32;13;17;39
74;35.5;35.5;13.1;63.9;93.4;0;32;32.2;32.2;0;32;10;14;41
75;36.4;36.4;12;63.5;94.2;0;34;35.5;35.5;0;32;7;11;43
76;37.4;37.4;12.5;62.3;94.9;0;33.5;38.9;38.9;0;32;4;8;45
77;38.5;38.5;14;60.3;95.7;0;35;43.2;43.2;0;32;1;5;47
78;39.3;39.3;19;58.9;96.6;0;36.5;46.1;46.1;0;32;0;3;49
79;39.5;39.5;23.2;58.4;97.7;0;36;49;49;0;32;0;0;50
80;39;39;28;58.8;98.9;0;34;50.4;50.4;0;32;0;0;50
81;38.5;38.5;32;60.2;100.4;0;31.5;50.4;50.4;0;32;0;0;50
82;37.3;37.3;34;62.3;102;0;27.1;49;49;0;32;0;0;50
83;37;37;36;63.9;103.6;0;23.7;46.6;46.6;0;32;0;0;50
84;36.7;36.7;38;64.5;105.2;0;21.7;46.1;46.1;0;32;0;0;50
85;35.9;35.9;40;64.4;106.8;0;20.7;46.1;46.1;0;32;0;0;50
86;35.3;35.3;40.3;63.5;108.5;0;18.7;46.8;46.8;0;29.1;0;0;50
87;34.6;34.6;40.5;62;110.2;0;16.8;46.8;46.8;0;26.2;0;0;50
88;34.2;34.2;39;61.2;111.9;0;17.7;46.1;46.1;0;23.3;0;0;50
89;31.9;31.9;35.7;61.3;113.7;0;18.7;46.1;46.1;0;20.4;0;0;50
90;27.3;27.3;31.8;62.6;115.3;0;19.7;44.6;44.6;0;17.5;0;0;50
91;22;22;27.1;65.3;116.8;0;18.7;43.9;43.9;0;14.5;0;0;50
92;17;17;22.8;68;118.2;0;17.2;46.1;46.1;0;11.6;0;0;50
93;14.2;14.2;21.1;69.4;119.5;0.7;12.8;47.5;47.5;0.7;8.7;0;0;50
94;12;12;18.9;69.7;120.7;2.1;10.3;49.7;49.7;2.1;5.8;0;0;50
95;9.1;9.1;18.9;69.3;121.8;9.2;7.9;52.6;52.6;9.2;2.9;0;0;50
96;5.8;5.8;21.3;68.1;122.6;15.6;3;54;54;15.6;0;0;0;50
97;3.6;3.6;23.9;66.9;123.2;19.8;0;54;54;19.8;0;0;0;50
98;2.2;2.2;25.9;66.2;123.6;19.8;0;51.8;51.8;19.8;0;2;0;50
99;0;0;28.4;65.7;123.7;22.7;0;47.5;47.5;22.7;0;4;2;50
100;0;0;30.3;64.9;123.6;25.5;0;44.6;44.6;25.5;0;7;4;50
101;0;0;30.9;63.2;123.3;29.8;0;41.8;41.8;29.8;0;9;6;50
102;0;0;31.1;60.3;123;34;0;39.6;39.6;34;0;11;8;47
103;0;0;31.8;55.8;122.5;36.9;0;38.2;38.2;36.9;0;13;10;44
104;0;0;32.7;50.5;122.1;38.3;0;36.7;36.7;38.3;0;16;12;41
105;0;0;33.2;45.2;121.5;40.4;0;38.2;38.2;40.4;0;18;14;38
106;0;0;32.4;40.1;120.8;43.2;0;38.9;38.9;43.2;0;20;16;36
107;0;0;28.3;36.2;120;46.1;6.2;40.3;40.3;46.1;0;22;18;33
108;0;0;25.8;32.9;119.1;46.1;14.7;41.8;41.8;46.1;0;25;21;30
109;0;0;23.1;29.8;118.1;46.1;19.3;40.3;40.3;46.1;0;27;23;27
110;0;0;21.8;26.6;117.1;44.6;20.1;40.3;40.3;44.6;0;29;25;24
111;0;0;21.2;23;116.2;46.1;17.8;43.2;43.2;46.1;0;31;27;21
112;0;0;21;19.4;115.5;48.2;19.3;46.1;46.1;48.2;0;33;29;18
113;0;0;21;16.3;114.9;48.9;21.6;50.4;50.4;48.9;0;36;31;15
114;0;0;20.9;14.6;114.5;48.2;24.7;54.7;54.7;48.2;0;38;33;13
115;0;0;19.9;14.2;114.1;46.8;30.1;59;59;46.8;0;40;35;10
116;0;0;17.9;14.3;113.9;44.6;36.3;62.6;62.6;44.6;0;40;37;7
117;0;0;15.1;14.6;113.7;42.5;44;66.2;66.2;42.5;0;40;39;4
118;0;0;12.8;15.1;113.3;41.8;47.1;69.1;69.1;41.8;1.9;40;41;1
119;0;0;12;16.4;112.9;41.1;47.9;73.4;73.4;41.1;3.8;40;43;0
120;0;0;13.2;19.1;112.2;39.7;53.3;77;77;39.7;5.8;37;45;0
121;0;0;17.1;22.5;111.4;36.1;57.9;79.2;79.2;36.1;7.7;34;47;0
122;0;0;21.1;24.4;110.5;34.7;61.8;79.2;79.2;34.7;9.6;31;49;0
123;0;0;21.8;24.8;109.5;34.7;66.4;80.6;80.6;34.7;11.5;28;50;0
124;0;0;21.2;22.7;108.5;36.9;68.8;79.9;79.9;36.9;13.5;26;50;0
125;0;0;18.5;17.4;107.7;36.1;68.8;79.2;79.2;36.1;15.4;23;50;0
126;0;0;13.9;13.8;107.1;36.1;69.5;77.8;77.8;36.1;17.3;20;50;0
127;0;0;12;12;106.6;34.7;71.1;77.8;77.8;34.7;19.2;17;50;0
128;0;0;12;12;106.4;32.6;71.1;77;77;32.6;21.2;14;50;0
129;0;0;13;12;106.2;29.1;70.3;78.5;78.5;29.1;23.4;11;50;0
130;0;0;16;13.9;106.2;24.1;70.3;79.2;79.2;24.1;25;8;50;0
131;0;0;18.5;18.8;106.2;20.6;70.3;81.4;81.4;20.6;26.9;5;50;0
132;0;0;20.6;25.1;106.4;15.6;69.5;82.1;82.1;15.6;28.8;3;50;0
133;0;0;22.5;29.8;106.5;11.3;71.1;83.5;83.5;11.3;30.8;0;50;0
134;0;0;24;33.8;106.8;9.2;70.3;84.2;84.2;9.2;32.7;0;50;0
135;0;0;26.6;38.2;107.2;9.2;70.3;84.2;84.2;9.2;34.6;0;50;0
136;0;0;29.9;43.4;107.8;9.2;68.8;81.4;81.4;9.2;36.5;0;50;0
137;0;0;34.8;48.9;108.5;9.9;68.8;79.9;79.9;9.9;38.5;0;50;0
138;0.2;0.2;37.8;53.8;109.4;10.6;68;78.5;78.5;10.6;40.4;0;50;0
139;1.9;1.9;40.2;57.8;110.5;12;66.4;77.8;77.8;12;42.3;0;50;2
140;6.1;6.1;41.6;61.5;111.7;11.3;66.4;79.9;79.9;11.3;44.2;0;50;3
141;11.7;11.7;41.9;65;113;7.8;64.9;81.4;81.4;7.8;46.2;0;50;5
142;16.4;16.4;42;68.4;114.1;1.4;61.8;83.5;83.5;1.4;48.1;0;50;7
143;18.9;18.9;42.2;71.6;115.1;0;57.9;86.4;86.4;0;50;0;50;8
144;19.9;19.9;42.4;73;115.9;0;54.1;87.8;87.8;0;50;0;50;10
145;20.8;20.8;42.7;74.3;116.5;0;51;90;90;0;50;0;50;12
146;22.8;22.8;43.1;76.2;116.7;0;50.2;92.2;92.2;0;50;0;50;13
147;25.4;25.4;43.7;77.9;116.6;0;47.9;94.3;94.3;0;50;0;47;15
148;27.7;27.7;44;79.5;116.2;0;44;95.8;95.8;0;50;0;44;17
149;29.2;29.2;44.1;81;115.2;0;37.9;97.9;97.9;0;50;0;41;18
150;29.8;29.8;45.3;82.3;113.8;0;28.6;99.4;99.4;0;50;0;38;20
151;29.4;29.4;46.4;83.5;112;0;13.9;101.5;101.5;0;50;0;36;22
152;27.2;27.2;47.2;84.6;110.1;0;1.5;103;103;0;50;0;33;23
153;22.6;22.6;47.3;85.5;108.3;0.7;0;103;103;0.7;50;;30;25
154;17.3;17.3;47.4;86.3;107;1.5;0;101.5;101.5;1.5;50;;27;26
155;13.3;13.3;47.4;87.1;106.1;4.4;0;97.2;97.2;4.4;50;;24;28
156;12;12;47.5;88.1;105.8;5.9;0;94.3;94.3;5.9;48.1;;21;30
157;12.6;12.6;47.9;89.1;105.7;7.3;0;92.9;92.9;7.3;46.2;;18;31
158;14.1;14.1;48.6;90.1;105.7;9.5;0;91.4;91.4;9.5;44.4;;15;33
159;17.2;17.2;49.4;91;105.6;8.1;0;92.2;92.2;8.1;42.5;;13;35
160;20.1;20.1;49.8;91.7;105.3;3.7;0;93.6;93.6;3.7;40.6;;10;36
161;23.4;23.4;49.8;92.3;104.9;2.9;0.7;95;95;2.9;38.8;;7;38
162;25.5;25.5;49.7;92.8;104.4;4.4;1.4;96.5;96.5;4.4;36.9;;4;40
163;27.6;27.6;49.3;93.1;104;0.7;3.6;97.9;97.9;0.7;35;;1;41
164;29.5;29.5;48.5;93.1;103.8;0;4.3;97.9;97.9;0;35;;0;43
165;31.1;31.1;47.6;93.1;103.9;0;10.1;98.6;98.6;0;35;;0;45
166;32.1;32.1;46.3;93.1;104.4;2.2;16.6;100.8;100.8;2.2;35;;0;46
167;33.2;33.2;43.7;93.1;105.1;2.2;19.5;100.8;100.8;2.2;35;;0;48
168;35.2;35.2;39.3;93.1;106.1;2.9;19.5;102.2;102.2;2.9;35;;0;50
169;37.2;37.2;34.1;93.1;107.2;7.3;19.5;102.2;102.2;7.3;35;;0;51
170;38;38;29;93.1;108.5;5.9;19.5;103;103;5.9;35;;0;53
171;37.4;37.4;23.7;93.1;109.9;7.3;20.2;103.7;103.7;7.3;35;;0;55
172;35.1;35.1;18.4;93.1;111.3;8.8;22.4;104.8;104.8;8.8;35;;0;56
173;31;31;14.3;93.2;112.7;11;23.9;104.8;104.8;11;35;;0;58
174;27.1;27.1;12;93.2;113.9;15.4;26;104.8;104.8;15.4;35;;0;60
175;25.3;25.3;12.8;93.3;115;13.9;26.7;104.8;104.8;13.9;35;;0;60
176;25.1;25.1;16;93.7;116;11.7;28.9;104.8;104.8;11.7;35;;0;60
177;25.9;25.9;19.1;94.2;116.8;11;28.2;105.8;105.8;11;32.1;;0;60
178;27.8;27.8;22.4;95;117.6;5.1;28.9;107.2;107.2;5.1;29.2;;0;60
179;29.2;29.2;25.6;95.8;118.4;0;31.1;107.7;107.7;0;26.2;;0;60
180;29.6;29.6;30.1;96.4;119.2;0;34;108.7;108.7;0;23.3;;0;60
181;29.5;29.5;35.3;96.8;120;0;36.9;109.2;109.2;0;20.4;;0;60
182;29.2;29.2;39.9;97;120.8;0;42.7;110.2;110.2;0;17.5;;0;60
183;28.3;28.3;44.5;97.1;121.6;0;46.3;110.2;110.2;0;14.6;;;60
184;26.1;26.1;47.5;97.2;122.3;0;47;110.7;110.7;0;11.7;;;60
185;23.6;23.6;50.9;97.3;123.1;0;47;110.2;110.2;0;8.7;;;60
186;21;21;54.1;97.4;123.8;0;47.7;110.2;110.2;0;5.8;;;57
187;18.9;18.9;56.3;97.4;124.4;0;47;110.2;110.2;0;2.9;;;54
188;17.1;17.1;58.1;97.4;125;0;46.3;110.2;110.2;0;0;;;51
189;15.7;15.7;59.8;97.4;125.4;0;44.1;110.7;110.7;0;0;;;48
190;14.5;14.5;61.1;97.3;125.8;0;44.1;110.7;110.7;0;0;;;46
191;13.7;13.7;62.1;97.3;126.1;0;44.8;110.7;110.7;0;0;;;43
192;12.9;12.9;62.8;97.3;126.4;0;45.5;111.2;111.2;0;0;;;40
193;12.5;12.5;63.3;97.3;126.6;0;47;111.2;111.2;0;0;;;37
194;12.2;12.2;63.6;97.2;126.7;0;47;111.2;111.2;0;0;;;34
195;12;12;64;97.1;126.8;0;48.4;111.7;111.7;0;0;;;31
196;12;12;64.7;97;126.9;0;49.9;112.2;112.2;0;0;;;28
197;12;12;65.2;96.9;126.9;0;50.6;113.2;113.2;0;0;;;25
198;12;12;65.3;96.7;126.9;0;49.9;113.2;113.2;0;0;;;23
199;12.5;12.5;65.3;96.4;126.8;0;48.4;114.2;114.2;0;0;;;20
200;13;13;65.4;96.1;126.6;0;47;114.2;114.2;0;0;;;17
201;14;14;65.7;95.7;126.3;0;46.3;114.7;114.7;0;0;;;14
202;15;15;66;95.5;126;0;45.5;115.1;115.1;0;0;;;11
203;16.5;16.5;65.6;95.3;125.7;0;44.8;114.7;114.7;0;0;;;8
204;19;19;63.5;95.2;125.6;0;45.5;114.7;114.7;0;0;;;5
205;21.2;21.2;59.7;95;125.6;0;47;114.7;114.7;0;0;;;2
206;23.8;23.8;54.6;94.9;125.8;0;51.3;114.2;114.2;0;0;;;0
207;26.9;26.9;49.3;94.7;126.2;0;54.9;114.2;114.2;0;0;;;0
208;29.6;29.6;44.9;94.5;126.6;0.7;59.3;113.7;113.7;0.7;3.8;;;0
209;32;32;42.3;94.4;127;11;64.3;113.7;113.7;11;7.5;;;0
210;35.2;35.2;41.4;94.4;127.4;13.2;65.1;113.2;113.2;13.2;11.3;;;0
211;37.5;37.5;41.3;94.3;127.6;13.9;65.1;112.7;112.7;13.9;15;;;0
212;39.2;39.2;42.1;94.3;127.8;14.7;65.8;112.7;112.7;14.7;15;;;0
213;40.5;40.5;44.7;94.1;127.9;15.4;65.1;112.2;112.2;15.4;15;;;0
214;41.6;41.6;48.4;93.9;128;16.9;64.3;112.7;112.7;16.9;15;;;0
215;43.1;43.1;51.4;93.4;128.1;16.1;65.8;111.7;111.7;16.1;15;;;0
216;45;45;52.7;92.8;128.2;15.4;68;111.7;111.7;15.4;15;;;0
217;47.1;47.1;53;92;128.3;13.9;72.3;111.7;111.7;13.9;15;;;0
218;49;49;52.5;91.3;128.4;13.2;72.3;110.7;110.7;13.2;15;;;0
219;50.6;50.6;51.3;90.6;128.5;13.2;72.3;110.2;110.2;13.2;15;;;0
220;51.8;51.8;49.7;90;128.6;15.4;71.6;109.7;109.7;15.4;12;;;0
221;52.7;52.7;47.4;89.3;128.6;16.9;70.8;109.2;109.2;16.9;9;;;0
222;53.1;53.1;43.7;88.7;128.5;16.1;70.1;108.7;108.7;16.1;6;;;0
223;53.5;53.5;39.7;88.1;128.3;14.7;69.4;108.2;108.2;14.7;3;;;0
224;53.8;53.8;35.5;87.4;128.1;13.2;67.2;107.7;107.7;13.2;0;;;0
225;54.2;54.2;31.1;86.7;127.9;13.9;65.8;107.2;107.2;13.9;0;;;0
226;54.8;54.8;26.3;86;127.6;14.7;66.5;107.2;107.2;14.7;0;;;
227;55.3;55.3;21.9;85.3;127.4;18.3;66.5;106.7;106.7;18.3;0;;;
228;55.8;55.8;18;84.7;127.2;22;67.2;106.7;106.7;22;0;;;
229;56.2;56.2;17;84.1;127;30.1;65.8;106.7;106.7;30.1;0;;;
230;56.5;56.5;18;83.5;126.9;32.3;64.3;106.3;106.3;32.3;0;;;
231;56.5;56.5;21.4;82.9;126.8;32.3;63.6;106.3;106.3;32.3;0;;;
232;56.2;56.2;24.8;82.3;126.7;38.1;62.9;106.3;106.3;38.1;0;;;
233;54.9;54.9;27.9;81.7;126.8;38.1;62.9;106.3;106.3;38.1;0;;;
234;52.9;52.9;30.8;81.1;126.9;38.1;63.6;107.7;107.7;38.1;0;;;
235;51;51;33;80.5;127.1;38.1;64.3;109.2;109.2;38.1;0;;;
236;49.8;49.8;35.1;79.9;127.4;38.9;65.1;111.7;111.7;38.9;0;;;
237;49.2;49.2;37.1;79.4;127.7;39.6;66.5;113.2;113.2;39.6;0;;;
238;48.4;48.4;38.9;79;128.1;40.3;66.5;115.6;115.6;40.3;0;;;
239;46.9;46.9;41.4;78.7;128.5;40.3;68;117.6;117.6;40.3;0;;;
240;44.3;44.3;44;78.7;129;41.1;68.7;120.1;120.1;41.1;0;;;
241;41.5;41.5;46.3;78.8;129.5;43.3;68.7;122.1;122.1;43.3;0;;;
242;39.5;39.5;47.7;79.1;130.1;44.7;68.7;123.5;123.5;44.7;0;;;
243;37;37;48.2;79.4;130.6;45.5;67.2;124.5;124.5;45.5;0;;;
244;34.6;34.6;48.7;79.6;131;44;65.8;125.5;125.5;44;0;;;
245;32.3;32.3;49.3;79.8;131.2;44;63.6;126;126;44;0;;;
246;29;29;49.8;79.8;131.3;43.3;61.4;127;127;43.3;2.7;;;
247;25.1;25.1;50.2;79.6;131.2;41.8;57.1;127;127;41.8;5.3;;;
248;22.2;22.2;50.9;79.3;130.7;38.9;54.2;128;128;38.9;8;;;
249;20.9;20.9;51.8;78.9;129.8;34.5;53.7;128;128;34.5;10.7;;;
250;20.4;20.4;52.5;78.5;128.4;33;53.7;128;128;33;13.3;;;
251;19.5;19.5;53.3;78.2;126.5;33.7;53;128;128;33.7;16;;;
252;18.4;18.4;54.5;77.9;124.1;36.7;54.4;128;128;36.7;18.7;;;
253;17.8;17.8;55.7;77.7;121.6;37.4;55.9;128.5;128.5;37.4;21.3;;;
254;17.8;17.8;56.5;77.7;119;40.3;59.5;128.5;128.5;40.3;24;;;
255;17.4;17.4;56.8;77.8;116.5;41.1;64.6;128.5;128.5;41.1;26.7;;;
256;15.7;15.7;57;77.9;114.1;41.1;69.7;128.5;128.5;41.1;29.3;;;
257;14.5;14.5;57.2;78.1;111.8;38.9;73.3;128.5;128.5;38.9;32;;;
258;15.4;15.4;57.7;78.3;109.5;37.4;76.9;128.5;128.5;37.4;32;;;
259;17.9;17.9;58.7;78.3;107.1;35.9;74.8;126;126;35.9;32;;;
260;20.6;20.6;60.1;78.4;104.8;34.5;74.8;123.1;123.1;34.5;32;;;
261;23.2;23.2;61.1;78.4;102.5;32.3;74.8;121.1;121.1;32.3;32;;;
262;25.7;25.7;61.7;78.4;100.4;30.8;74.8;120.6;120.6;30.8;32;;;
263;28.7;28.7;62.3;78.2;98.6;27.9;74;120.1;120.1;27.9;32;;;
264;32.5;32.5;62.9;78;97.2;26.4;74;119.6;119.6;26.4;32;;;
265;36.1;36.1;63.3;77.7;95.9;24.2;73.3;119.6;119.6;24.2;32;;;
266;39;39;63.4;77.3;94.8;23.5;71.9;119.6;119.6;23.5;32;;;
267;40.8;40.8;63.5;76.9;93.8;22.7;70.4;119.6;119.6;22.7;32;;;
268;42.9;42.9;64.5;76.6;92.8;21.3;69.7;119.6;119.6;21.3;32;;;
269;44.4;44.4;65.8;76.2;91.8;19.1;69.7;119.6;119.6;19.1;32;;;
270;45.9;45.9;66.8;75.7;91;16.9;71.9;120.1;120.1;16.9;32;;;
271;46;46;67.4;75.2;90.2;11;73.3;119.6;119.6;11;32;;;
272;45.6;45.6;68.8;74.7;89.6;6.6;74;120.6;120.6;6.6;32;;;
273;45.3;45.3;71.1;74.4;89.1;5.1;73.3;120.1;120.1;5.1;32;;;
274;43.7;43.7;72.3;74.3;88.6;4.4;73.3;120.6;120.6;4.4;32;;;
275;40.8;40.8;72.8;74.4;88.1;2.2;75.5;120.1;120.1;2.2;32;;;
276;38;38;73.4;74.6;87.6;0;76.2;119.6;119.6;0;32;;;
277;34.4;34.4;74.6;74.9;87.1;0;75.5;120.1;120.1;0;32;;;
278;30.9;30.9;76;75.1;86.6;0;73.3;121.1;121.1;0;32;;;
279;25.5;25.5;76.6;75.3;86.1;2.2;71.1;122.1;122.1;2.2;32;;;
280;21.4;21.4;76.5;75.5;85.5;5.1;69.7;123.1;123.1;5.1;32;;;
281;20.2;20.2;76.2;75.8;85;13.9;66.8;124.1;124.1;13.9;32;;;
282;22.9;22.9;75.8;75.9;84.4;22.7;66;125.1;125.1;22.7;29.1;;;
283;26.6;26.6;75.4;76;83.8;27.1;66;126.1;126.1;27.1;26.2;;;
284;30.2;30.2;74.8;76;83.2;27.1;67.5;127.1;127.1;27.1;23.3;;;
285;34.1;34.1;73.9;76;82.6;22.7;69.7;128.1;128.1;22.7;20.4;;;
286;37.4;37.4;72.7;75.9;82;18.3;69;128.1;128.1;18.3;17.5;;;
287;40.7;40.7;71.3;75.9;81.3;11.7;66.8;129.1;129.1;11.7;14.5;;;
288;44;44;70.4;75.8;80.4;8.8;65.3;130.1;130.1;8.8;11.6;;;
289;47.3;47.3;70;75.7;79.1;6.6;63.9;130.1;130.1;6.6;8.7;;;
290;49.2;49.2;70;75.5;77.4;3.7;61.7;130.6;130.6;3.7;5.8;;;
291;49.8;49.8;69;75.2;75.1;2.9;51.5;131.1;131.1;2.9;2.9;;;
292;49.2;49.2;68;75;72.3;4.4;38.5;131.1;131.1;4.4;0;;;
293;48.1;48.1;68;74.7;69.1;11;34.1;131.1;131.1;11;0;;;
294;47.3;47.3;68;74.1;65.9;11.7;35.6;131.1;131.1;11.7;0;;;
295;46.8;46.8;68.1;73.7;62.7;11.7;37;130.6;130.6;11.7;0;;;
296;46.7;46.7;68.4;73.3;59.7;11;39.2;130.6;130.6;11;0;;;
297;46.8;46.8;68.6;73.5;57;8.8;39.2;130.1;130.1;8.8;0;;;
298;47.1;47.1;68.7;74;54.6;6.6;39.9;130.1;130.1;6.6;0;;;
299;47.3;47.3;68.5;74.9;52.2;7.3;42.8;129.6;129.6;7.3;0;;;
300;47.3;47.3;68.1;76.1;49.7;5.9;42.1;129.6;129.6;5.9;0;;;
301;47.1;47.1;67.3;77.7;46.8;4.4;41.4;129.1;129.1;4.4;0;;;
302;46.6;46.6;66.2;79.2;43.5;2.2;40.6;128.6;128.6;2.2;0;;;
303;45.8;45.8;64.8;80.3;39.9;0.7;41.4;129.1;129.1;0.7;0;;;
304;44.8;44.8;63.6;80.8;36.4;0;42.8;128.1;128.1;0;0;;;
305;43.3;43.3;62.6;81;33.2;0;44.3;128.1;128.1;0;0;;;
306;41.8;41.8;62.1;81;30.5;0;46.5;127.6;127.6;0;0;;;
307;40.8;40.8;61.9;81;28.3;0;44.3;127.1;127.1;0;0;;;
308;40.3;40.3;61.9;81;26.3;0;43.5;127.1;127.1;0;0;;;
309;40.1;40.1;61.8;81;24.4;0;44.3;126.6;126.6;0;0;;;
310;39.7;39.7;61.5;80.9;22.5;0;44.3;126.1;126.1;0;0;;;
311;39.2;39.2;60.9;80.6;20.5;2;45.7;125.6;125.6;2;0;;;
312;38.5;38.5;59.7;80.3;18.2;6.9;50.1;125.1;125.1;6.9;0;;;
313;37.4;37.4;54.6;80;15.5;10.8;52.3;125.1;125.1;10.8;0;;;
314;36;36;49.3;79.9;12.3;12.3;51.5;124.1;124.1;12.3;1.9;;;
315;34.4;34.4;44.9;79.8;8.7;14.3;50.1;123.6;123.6;14.3;3.8;;;
316;33;33;42.3;79.8;5.2;19.7;49.4;123.6;123.6;19.7;5.8;;;
317;31.7;31.7;41.4;79.8;0;21.2;50.1;123.1;123.1;21.2;7.7;;;
318;30;30;41.3;79.9;0;23.7;50.8;122.6;122.6;23.7;9.6;;;
319;28;28;42.1;80;0;28.1;48.6;123.1;123.1;28.1;11.5;;;
320;26.1;26.1;44.7;80.4;0;31;47.2;123.6;123.6;31;13.5;;;
321;25.6;25.6;48.4;80.8;0;31.5;47.9;123.6;123.6;31.5;15.4;;;
322;24.9;24.9;51.4;81.2;0;33;50.8;124.1;124.1;33;17.3;;;
323;24.9;24.9;52.7;81.5;;34;53.7;124.1;124.1;34;19.2;;;
324;24.3;24.3;54;81.6;;31;53.7;124.1;124.1;31;21.2;;;
325;23.9;23.9;57;81.6;;24.1;53.7;124.6;124.6;24.1;23.4;;;
326;23.9;23.9;58.1;81.4;;15.8;55.2;124.6;124.6;15.8;25;;;
327;23.6;23.6;59.2;80.7;;10.8;55.9;124.6;124.6;10.8;26.9;;;
328;23.3;23.3;59;79.6;;6.4;55.9;125.1;125.1;6.4;28.8;;;
329;20.5;20.5;59.1;78.2;;2.5;55.2;124.6;124.6;2.5;30.8;;;
330;17.5;17.5;59.5;76.8;;1.5;54.4;125.1;125.1;1.5;32.7;;;
331;16.9;16.9;60.5;75.3;;0;55.9;124.6;124.6;0;34.6;;;
332;16.7;16.7;62.3;73.8;;0;56.6;125.1;125.1;0;36.5;;;
333;15.9;15.9;63.9;72.1;;0.5;57.3;125.1;125.1;0.5;38.5;;;
334;15.6;15.6;65.1;70.2;;6.4;56.6;125.1;125.1;6.4;40.4;;;
335;15;15;64.1;68.2;;13.8;59.5;124.6;124.6;13.8;42.3;;;
336;14.5;14.5;62.7;66.1;;19.2;61.7;123.6;123.6;19.2;44.2;;;
337;14.3;14.3;62;63.8;;19.2;63.1;123.1;123.1;19.2;46.2;;;
338;14.5;14.5;61.3;61.6;;21.2;62.4;121.6;121.6;21.2;48.1;;;
339;15.4;15.4;60.9;60.2;;22.7;61.7;120.1;120.1;22.7;50;;;
340;17.8;17.8;60.5;59.8;;25.1;61.7;120.6;120.6;25.1;50;;;
